Time(s),Length(m),[Calcium],Force(N)
 0.000,0.230000,0.000000,0.000000
 0.002,0.230000,0.000000,0.000000
 0.004,0.230000,0.000000,0.000000
 0.006,0.230000,0.000000,0.000000
 0.008,0.230000,0.000000,0.000000
 0.010,0.230000,0.000000,0.000000
 0.012,0.230000,0.000000,0.000000
 0.014,0.230000,0.000000,0.000000
 0.016,0.230000,0.000000,0.000000
 0.018,0.230000,0.000000,0.000000
 0.020,0.230000,0.000000,0.000000
 0.022,0.230000,0.000000,0.000000
 0.024,0.230000,0.000000,0.000000
 0.026,0.230000,0.000000,0.000000
 0.028,0.230000,0.000000,0.000000
 0.030,0.230000,0.000000,0.000000
 0.032,0.230000,0.000000,0.000000
 0.034,0.230000,0.000000,0.000000
 0.036,0.230000,0.000000,0.000000
 0.038,0.230000,0.000000,0.000000
 0.040,0.230000,0.000000,0.000000
 0.042,0.230000,0.000000,0.000000
 0.044,0.230000,0.000000,0.000000
 0.046,0.230000,0.000000,0.000000
 0.048,0.230000,0.000000,0.000000
 0.050,0.230000,0.000025,-0.000000
 0.052,0.230123,0.329698,3.735436
 0.054,0.230251,0.550683,7.650175
 0.056,0.230375,0.698814,11.395442
 0.058,0.230492,0.798109,14.962621
 0.060,0.230603,0.864668,18.354890
 0.062,0.230709,0.909285,21.580702
 0.064,0.230810,0.939192,24.645131
 0.066,0.230906,0.959239,27.558788
 0.068,0.230997,0.972677,30.325822
 0.070,0.231083,0.981685,32.956069
 0.072,0.231166,0.987723,35.456078
 0.074,0.231244,0.991770,37.831512
 0.076,0.231318,0.994484,40.090727
 0.078,0.231388,0.996302,42.236758
 0.080,0.231456,0.997521,44.277902
 0.082,0.231519,0.998338,46.218628
 0.084,0.231580,0.998886,48.063792
 0.086,0.231638,0.999253,49.819851
 0.088,0.231693,0.999500,51.488388
 0.090,0.231745,0.999665,53.076581
 0.092,0.231794,0.999775,54.587932
 0.094,0.231842,0.999849,56.024949
 0.096,0.231887,0.999899,57.393417
 0.098,0.231929,0.999932,58.695437
 0.100,0.231970,0.999955,59.934332
 0.102,0.232009,0.999970,61.114694
 0.104,0.232046,0.999980,62.237853
 0.106,0.232081,0.999986,63.306961
 0.108,0.232115,0.999991,64.326047
 0.110,0.232146,0.999994,65.296423
 0.112,0.232177,0.999996,66.219798
 0.114,0.232206,0.999997,67.100392
 0.116,0.232233,0.999998,67.940379
 0.118,0.232260,0.999999,68.738450
 0.120,0.232285,0.999999,69.499914
 0.122,0.232308,0.999999,70.226567
 0.124,0.232331,1.000000,70.918949
 0.126,0.232353,1.000000,71.577745
 0.128,0.232374,1.000000,72.206728
 0.130,0.232393,1.000000,72.807337
 0.132,0.232412,1.000000,73.380013
 0.134,0.232430,1.000000,73.924549
 0.136,0.232447,1.000000,74.444794
 0.138,0.232463,1.000000,74.941882
 0.140,0.232479,1.000000,75.417779
 0.142,0.232494,1.000000,75.868250
 0.144,0.232508,1.000000,76.298909
 0.146,0.232522,1.000000,76.710690
 0.148,0.232535,1.000000,77.104460
 0.150,0.232547,1.000000,77.482377
 0.152,0.232559,1.000000,77.838911
 0.154,0.232570,1.000000,78.180031
 0.156,0.232581,1.000000,78.506452
 0.158,0.232591,1.000000,78.818851
 0.160,0.232601,1.000000,79.118375
 0.162,0.232610,1.000000,79.405221
 0.164,0.232619,1.000000,79.675520
 0.166,0.232628,1.000000,79.934369
 0.168,0.232636,1.000000,80.182287
 0.170,0.232644,1.000000,80.419764
 0.172,0.232651,1.000000,80.647270
 0.174,0.232658,1.000000,80.869070
 0.176,0.232665,1.000000,81.076073
 0.178,0.232672,1.000000,81.272418
 0.180,0.232678,1.000000,81.460683
 0.182,0.232684,1.000000,81.641186
 0.184,0.232689,1.000000,81.814259
 0.186,0.232695,1.000000,81.980224
 0.188,0.232700,1.000000,82.139702
 0.190,0.232705,1.000000,82.297064
 0.192,0.232710,1.000000,82.444399
 0.194,0.232715,1.000000,82.580727
 0.196,0.232719,1.000000,82.711610
 0.198,0.232723,1.000000,82.837278
 0.200,0.232727,1.000000,82.957950
 0.202,0.232731,1.000000,83.073837
 0.204,0.232734,1.000000,83.185139
 0.206,0.232738,1.000000,83.292047
 0.208,0.232741,1.000000,83.394747
 0.210,0.232745,1.000000,83.496408
 0.212,0.232748,1.000000,83.595636
 0.214,0.232751,1.000000,83.690785
 0.216,0.232754,1.000000,83.773865
 0.218,0.232756,1.000000,83.853463
 0.220,0.232759,1.000000,83.930019
 0.222,0.232761,1.000000,84.003652
 0.224,0.232764,1.000000,84.074477
 0.226,0.232766,1.000000,84.142605
 0.228,0.232768,1.000000,84.208140
 0.230,0.232770,1.000000,84.271184
 0.232,0.232772,1.000000,84.331836
 0.234,0.232774,1.000000,84.390188
 0.236,0.232776,1.000000,84.446332
 0.238,0.232778,1.000000,84.501093
 0.240,0.232780,1.000000,84.557711
 0.242,0.232781,1.000000,84.612032
 0.244,0.232783,1.000000,84.664156
 0.246,0.232785,1.000000,84.714178
 0.248,0.232786,1.000000,84.762191
 0.250,0.232788,1.000000,84.808280
 0.252,0.232789,1.000000,84.852530
 0.254,0.232790,1.000000,84.888780
 0.256,0.232792,1.000000,84.921541
 0.258,0.232793,1.000000,84.953234
 0.260,0.232794,1.000000,84.983890
 0.262,0.232795,1.000000,85.013543
 0.264,0.232796,1.000000,85.042222
 0.266,0.232796,1.000000,85.069959
 0.268,0.232797,1.000000,85.096776
 0.270,0.232798,1.000000,85.122674
 0.272,0.232799,1.000000,85.147679
 0.274,0.232800,1.000000,85.171818
 0.276,0.232801,1.000000,85.195118
 0.278,0.232801,1.000000,85.217605
 0.280,0.232802,1.000000,85.239304
 0.282,0.232803,1.000000,85.260241
 0.284,0.232803,1.000000,85.280439
 0.286,0.232804,1.000000,85.299923
 0.288,0.232805,1.000000,85.318715
 0.290,0.232805,1.000000,85.336839
 0.292,0.232806,1.000000,85.354316
 0.294,0.232806,1.000000,85.371167
 0.296,0.232807,1.000000,85.387414
 0.298,0.232807,1.000000,85.403681
 0.300,0.232808,1.000000,85.423387
 0.302,0.232809,1.000000,85.442202
 0.304,0.232809,1.000000,85.460169
 0.306,0.232810,1.000000,85.477328
 0.308,0.232810,1.000000,85.493719
 0.310,0.232811,1.000000,85.509378
 0.312,0.232811,1.000000,85.524340
 0.314,0.232812,1.000000,85.538639
 0.316,0.232812,1.000000,85.552305
 0.318,0.232813,1.000000,85.565368
 0.320,0.232813,1.000000,85.577858
 0.322,0.232814,1.000000,85.589800
 0.324,0.232814,1.000000,85.601221
 0.326,0.232814,1.000000,85.612145
 0.328,0.232815,1.000000,85.622595
 0.330,0.232815,1.000000,85.632593
 0.332,0.232815,1.000000,85.642160
 0.334,0.232816,1.000000,85.651316
 0.336,0.232816,1.000000,85.660080
 0.338,0.232816,1.000000,85.668470
 0.340,0.232816,1.000000,85.676503
 0.342,0.232817,1.000000,85.684195
 0.344,0.232817,1.000000,85.691562
 0.346,0.232817,1.000000,85.698618
 0.348,0.232817,1.000000,85.705378
 0.350,0.232818,1.000000,85.711856
 0.352,0.232818,1.000000,85.718063
 0.354,0.232818,1.000000,85.724011
 0.356,0.232818,1.000000,85.729714
 0.358,0.232818,1.000000,85.735180
 0.360,0.232818,1.000000,85.740422
 0.362,0.232819,1.000000,85.745448
 0.364,0.232819,1.000000,85.750269
 0.366,0.232819,1.000000,85.754893
 0.368,0.232819,1.000000,85.759329
 0.370,0.232819,1.000000,85.763586
 0.372,0.232819,1.000000,85.767671
 0.374,0.232819,1.000000,85.771591
 0.376,0.232820,1.000000,85.775354
 0.378,0.232820,1.000000,85.778967
 0.380,0.232820,1.000000,85.782436
 0.382,0.232820,1.000000,85.785767
 0.384,0.232820,1.000000,85.788967
 0.386,0.232820,1.000000,85.792040
 0.388,0.232820,1.000000,85.794992
 0.390,0.232820,1.000000,85.797829
 0.392,0.232820,1.000000,85.800555
 0.394,0.232821,1.000000,85.803175
 0.396,0.232821,1.000000,85.805693
 0.398,0.232821,1.000000,85.808114
 0.400,0.232821,1.000000,85.816970
 0.402,0.232965,1.000000,88.211979
 0.404,0.233103,1.000000,90.424514
 0.406,0.233235,1.000000,92.464958
 0.408,0.233362,1.000000,94.341300
 0.410,0.233484,1.000000,96.061428
 0.412,0.233601,1.000000,97.634460
 0.414,0.233713,1.000000,99.066892
 0.416,0.233821,1.000000,100.364988
 0.418,0.233925,1.000000,101.536720
 0.420,0.234025,1.000000,102.588322
 0.422,0.234121,1.000000,103.526045
 0.424,0.234213,1.000000,104.355699
 0.426,0.234302,1.000000,105.082686
 0.428,0.234388,1.000000,105.712754
 0.430,0.234471,1.000000,106.251841
 0.432,0.234551,1.000000,106.706627
 0.434,0.234629,1.000000,107.080165
 0.436,0.234704,1.000000,107.377866
 0.438,0.234777,1.000000,107.605306
 0.440,0.234847,1.000000,107.766998
 0.442,0.234916,1.000000,107.867918
 0.444,0.234982,1.000000,107.914542
 0.446,0.235047,1.000000,107.906751
 0.448,0.235111,1.000000,107.854803
 0.450,0.235173,1.000000,107.759123
 0.452,0.235234,1.000000,107.627605
 0.454,0.235294,1.000000,107.461757
 0.456,0.235352,1.000000,107.266930
 0.458,0.235410,1.000000,107.045351
 0.460,0.235468,1.000000,106.804580
 0.462,0.235524,1.000000,106.541506
 0.464,0.235580,1.000000,106.264817
 0.466,0.235636,1.000000,105.976256
 0.468,0.235691,1.000000,105.676335
 0.470,0.235747,1.000000,105.372310
 0.472,0.235802,1.000000,105.065933
 0.474,0.235857,1.000000,104.755960
 0.476,0.235912,1.000000,104.447252
 0.478,0.235967,1.000000,104.140970
 0.480,0.236022,1.000000,103.828654
 0.482,0.236078,1.000000,103.543107
 0.484,0.236133,1.000000,103.250738
 0.486,0.236189,1.000000,102.969925
 0.488,0.236246,1.000000,102.701172
 0.490,0.236302,1.000000,102.427594
 0.492,0.236358,1.000000,102.159840
 0.494,0.236415,1.000000,101.906361
 0.496,0.236473,1.000000,101.667167
 0.498,0.236530,1.000000,101.442194
 0.500,0.236589,1.000000,101.231310
 0.502,0.236647,1.000000,101.034324
 0.504,0.236707,1.000000,100.850991
 0.506,0.236766,1.000000,100.681031
 0.508,0.236826,1.000000,100.524111
 0.510,0.236887,1.000000,100.379889
 0.512,0.236948,1.000000,100.247970
 0.514,0.237009,1.000000,100.127971
 0.516,0.237070,1.000000,100.003290
 0.518,0.237132,1.000000,99.893449
 0.520,0.237194,1.000000,99.808112
 0.522,0.237257,1.000000,99.732739
 0.524,0.237320,1.000000,99.666896
 0.526,0.237383,1.000000,99.610172
 0.528,0.237447,1.000000,99.562156
 0.530,0.237511,1.000000,99.522439
 0.532,0.237575,1.000000,99.490602
 0.534,0.237639,1.000000,99.442923
 0.536,0.237703,1.000000,99.405163
 0.538,0.237768,1.000000,99.396703
 0.540,0.237833,1.000000,99.394288
 0.542,0.237898,1.000000,99.397574
 0.544,0.237964,1.000000,99.406227
 0.546,0.238029,1.000000,99.419926
 0.548,0.238095,1.000000,99.438358
 0.550,0.238161,1.000000,99.461222
 0.552,0.238227,1.000000,99.488230
 0.554,0.238293,1.000000,99.519103
 0.556,0.238359,1.000000,99.538716
 0.558,0.238425,1.000000,99.552870
 0.560,0.238491,1.000000,99.588049
 0.562,0.238558,1.000000,99.633935
 0.564,0.238625,1.000000,99.682239
 0.566,0.238692,1.000000,99.732770
 0.568,0.238759,1.000000,99.785347
 0.570,0.238826,1.000000,99.839798
 0.572,0.238893,1.000000,99.895960
 0.574,0.238960,1.000000,99.953681
 0.576,0.239027,1.000000,100.012815
 0.578,0.239094,1.000000,100.073225
 0.580,0.239161,1.000000,100.134785
 0.582,0.239229,1.000000,100.197374
 0.584,0.239296,1.000000,100.260879
 0.586,0.239363,1.000000,100.325200
 0.588,0.239431,1.000000,100.390282
 0.590,0.239498,1.000000,100.456049
 0.592,0.239565,1.000000,100.522416
 0.594,0.239633,1.000000,100.589304
 0.596,0.239700,1.000000,100.656640
 0.598,0.239768,1.000000,100.724352
 0.600,0.239835,1.000000,100.792378
 0.602,0.239903,1.000000,100.860656
 0.604,0.239970,1.000000,100.929129
 0.606,0.240038,1.000000,100.997747
 0.608,0.240105,1.000000,101.066459
 0.610,0.240173,1.000000,101.135222
 0.612,0.240240,1.000000,101.203994
 0.614,0.240307,1.000000,101.272738
 0.616,0.240375,1.000000,101.341418
 0.618,0.240442,1.000000,101.410003
 0.620,0.240510,1.000000,101.478464
 0.622,0.240577,1.000000,101.546774
 0.624,0.240645,1.000000,101.614909
 0.626,0.240712,1.000000,101.682847
 0.628,0.240780,1.000000,101.750570
 0.630,0.240847,1.000000,101.818059
 0.632,0.240915,1.000000,101.885300
 0.634,0.240982,1.000000,101.952277
 0.636,0.241049,1.000000,102.018979
 0.638,0.241117,1.000000,102.085395
 0.640,0.241184,1.000000,102.151515
 0.642,0.241252,1.000000,102.217331
 0.644,0.241319,1.000000,102.282837
 0.646,0.241386,1.000000,102.348026
 0.648,0.241454,1.000000,102.412893
 0.650,0.241521,1.000000,102.477435
 0.652,0.241588,1.000000,102.541647
 0.654,0.241656,1.000000,102.605527
 0.656,0.241723,1.000000,102.669073
 0.658,0.241790,1.000000,102.732284
 0.660,0.241858,1.000000,102.795159
 0.662,0.241925,1.000000,102.857697
 0.664,0.241992,1.000000,102.919899
 0.666,0.242059,1.000000,102.981764
 0.668,0.242127,1.000000,103.043294
 0.670,0.242194,1.000000,103.104488
 0.672,0.242261,1.000000,103.165349
 0.674,0.242328,1.000000,103.225878
 0.676,0.242395,1.000000,103.286075
 0.678,0.242463,1.000000,103.345943
 0.680,0.242530,1.000000,103.405484
 0.682,0.242597,1.000000,103.464698
 0.684,0.242664,1.000000,103.523589
 0.686,0.242731,1.000000,103.582157
 0.688,0.242798,1.000000,103.640404
 0.690,0.242865,1.000000,103.698334
 0.692,0.242933,1.000000,103.755946
 0.694,0.243000,1.000000,103.813244
 0.696,0.243067,1.000000,103.870229
 0.698,0.243134,1.000000,103.926902
 0.700,0.243201,1.000000,103.983266
 0.702,0.243268,1.000000,104.039323
 0.704,0.243335,1.000000,104.095073
 0.706,0.243402,1.000000,104.150518
 0.708,0.243469,1.000000,104.205661
 0.710,0.243536,1.000000,104.260502
 0.712,0.243603,1.000000,104.315042
 0.714,0.243670,1.000000,104.369283
 0.716,0.243737,1.000000,104.423227
 0.718,0.243804,1.000000,104.476874
 0.720,0.243871,1.000000,104.530225
 0.722,0.243938,1.000000,104.583282
 0.724,0.244005,1.000000,104.636045
 0.726,0.244072,1.000000,104.688516
 0.728,0.244139,1.000000,104.740694
 0.730,0.244206,1.000000,104.792581
 0.732,0.244273,1.000000,104.844178
 0.734,0.244340,1.000000,104.895485
 0.736,0.244407,1.000000,104.946503
 0.738,0.244473,1.000000,104.997231
 0.740,0.244540,1.000000,105.047672
 0.742,0.244607,1.000000,105.097825
 0.744,0.244674,1.000000,105.147690
 0.746,0.244741,1.000000,105.197268
 0.748,0.244808,1.000000,105.246559
 0.750,0.244874,1.000000,105.295563
 0.752,0.244941,1.000000,105.344282
 0.754,0.245008,1.000000,105.392714
 0.756,0.245075,1.000000,105.440860
 0.758,0.245142,1.000000,105.488720
 0.760,0.245208,1.000000,105.536294
 0.762,0.245275,1.000000,105.583583
 0.764,0.245342,1.000000,105.630586
 0.766,0.245409,1.000000,105.677304
 0.768,0.245476,1.000000,105.723736
 0.770,0.245542,1.000000,105.769882
 0.772,0.245609,1.000000,105.815744
 0.774,0.245676,1.000000,105.861319
 0.776,0.245742,1.000000,105.906610
 0.778,0.245809,1.000000,105.951614
 0.780,0.245876,1.000000,105.996333
 0.782,0.245942,1.000000,106.040767
 0.784,0.246009,1.000000,106.084915
 0.786,0.246076,1.000000,106.128777
 0.788,0.246142,1.000000,106.172354
 0.790,0.246209,1.000000,106.215644
 0.792,0.246276,1.000000,106.258649
 0.794,0.246342,1.000000,106.301368
 0.796,0.246409,1.000000,106.343801
 0.798,0.246476,1.000000,106.385948
 0.800,0.246542,1.000000,106.427809
 0.802,0.246609,1.000000,106.469384
 0.804,0.246675,1.000000,106.510672
 0.806,0.246742,1.000000,106.551675
 0.808,0.246808,1.000000,106.592391
 0.810,0.246875,1.000000,106.632820
 0.812,0.246942,1.000000,106.672964
 0.814,0.247008,1.000000,106.712821
 0.816,0.247075,1.000000,106.752391
 0.818,0.247141,1.000000,106.791676
 0.820,0.247208,1.000000,106.830673
 0.822,0.247274,1.000000,106.869384
 0.824,0.247341,1.000000,106.907809
 0.826,0.247407,1.000000,106.945947
 0.828,0.247473,1.000000,106.983799
 0.830,0.247540,1.000000,107.021364
 0.832,0.247606,1.000000,107.058643
 0.834,0.247673,1.000000,107.095635
 0.836,0.247739,1.000000,107.132341
 0.838,0.247806,1.000000,107.168760
 0.840,0.247872,1.000000,107.204893
 0.842,0.247938,1.000000,107.240739
 0.844,0.248005,1.000000,107.276300
 0.846,0.248071,1.000000,107.311573
 0.848,0.248138,1.000000,107.346561
 0.850,0.248204,1.000000,107.381262
 0.852,0.248270,1.000000,107.415677
 0.854,0.248337,1.000000,107.449806
 0.856,0.248403,1.000000,107.483649
 0.858,0.248469,1.000000,107.517206
 0.860,0.248536,1.000000,107.550477
 0.862,0.248602,1.000000,107.583462
 0.864,0.248668,1.000000,107.616162
 0.866,0.248734,1.000000,107.648575
 0.868,0.248801,1.000000,107.680704
 0.870,0.248867,1.000000,107.712546
 0.872,0.248933,1.000000,107.744103
 0.874,0.248999,1.000000,107.775375
 0.876,0.249066,1.000000,107.806362
 0.878,0.249132,1.000000,107.837064
 0.880,0.249198,1.000000,107.867480
 0.882,0.249264,1.000000,107.897612
 0.884,0.249331,1.000000,107.927458
 0.886,0.249397,1.000000,107.957021
 0.888,0.249463,1.000000,107.986298
 0.890,0.249529,1.000000,108.015291
 0.892,0.249595,1.000000,108.044000
 0.894,0.249661,1.000000,108.072425
 0.896,0.249728,1.000000,108.100565
 0.898,0.249794,1.000000,108.128422
 0.900,0.249860,1.000000,108.155994
 0.902,0.249926,1.000000,108.183283
 0.904,0.249992,1.000000,108.210289
 0.906,0.250058,1.000000,108.237011
 0.908,0.250124,1.000000,108.263450
 0.910,0.250190,1.000000,108.289606
 0.912,0.250256,1.000000,108.315479
 0.914,0.250322,1.000000,108.341069
 0.916,0.250388,1.000000,108.366376
 0.918,0.250455,1.000000,108.391401
 0.920,0.250521,1.000000,108.416144
 0.922,0.250587,1.000000,108.440604
 0.924,0.250653,1.000000,108.464782
 0.926,0.250719,1.000000,108.488679
 0.928,0.250785,1.000000,108.512293
 0.930,0.250851,1.000000,108.535627
 0.932,0.250917,1.000000,108.558678
 0.934,0.250983,1.000000,108.581449
 0.936,0.251048,1.000000,108.603939
 0.938,0.251114,1.000000,108.626148
 0.940,0.251180,1.000000,108.648076
 0.942,0.251246,1.000000,108.669723
 0.944,0.251312,1.000000,108.691091
 0.946,0.251378,1.000000,108.712178
 0.948,0.251444,1.000000,108.732985
 0.950,0.251510,1.000000,108.753512
 0.952,0.251576,1.000000,108.773760
 0.954,0.251642,1.000000,108.793729
 0.956,0.251708,1.000000,108.813418
 0.958,0.251773,1.000000,108.832829
 0.960,0.251839,1.000000,108.851960
 0.962,0.251905,1.000000,108.870813
 0.964,0.251971,1.000000,108.889388
 0.966,0.252037,1.000000,108.907684
 0.968,0.252103,1.000000,108.925702
 0.970,0.252168,1.000000,108.943443
 0.972,0.252234,1.000000,108.960906
 0.974,0.252300,1.000000,108.978092
 0.976,0.252366,1.000000,108.995000
 0.978,0.252431,1.000000,109.011631
 0.980,0.252497,1.000000,109.027986
 0.982,0.252563,1.000000,109.044064
 0.984,0.252629,1.000000,109.059866
 0.986,0.252694,1.000000,109.075392
 0.988,0.252760,1.000000,109.090642
 0.990,0.252826,1.000000,109.105616
 0.992,0.252892,1.000000,109.120315
 0.994,0.252957,1.000000,109.134739
 0.996,0.253023,1.000000,109.148887
 0.998,0.253089,1.000000,109.162761
 1.000,0.253154,1.000000,109.176361
 1.002,0.253220,1.000000,109.189686
 1.004,0.253286,1.000000,109.202737
 1.006,0.253351,1.000000,109.215514
 1.008,0.253417,1.000000,109.228018
 1.010,0.253482,1.000000,109.240248
 1.012,0.253548,1.000000,109.252206
 1.014,0.253614,1.000000,109.263890
 1.016,0.253679,1.000000,109.275302
 1.018,0.253745,1.000000,109.286442
 1.020,0.253810,1.000000,109.297309
 1.022,0.253876,1.000000,109.307905
 1.024,0.253942,1.000000,109.318228
 1.026,0.254007,1.000000,109.328281
 1.028,0.254073,1.000000,109.338063
 1.030,0.254138,1.000000,109.347573
 1.032,0.254204,1.000000,109.356813
 1.034,0.254269,1.000000,109.365783
 1.036,0.254335,1.000000,109.374483
 1.038,0.254400,1.000000,109.382912
 1.040,0.254466,1.000000,109.391073
 1.042,0.254531,1.000000,109.398964
 1.044,0.254597,1.000000,109.406586
 1.046,0.254662,1.000000,109.413939
 1.048,0.254728,1.000000,109.421024
 1.050,0.254793,1.000000,109.427841
 1.052,0.254858,1.000000,109.434390
 1.054,0.254924,1.000000,109.440671
 1.056,0.254989,1.000000,109.446684
 1.058,0.255055,1.000000,109.452431
 1.060,0.255120,1.000000,109.457911
 1.062,0.255185,1.000000,109.463124
 1.064,0.255251,1.000000,109.468071
 1.066,0.255316,1.000000,109.472753
 1.068,0.255382,1.000000,109.477168
 1.070,0.255447,1.000000,109.481318
 1.072,0.255512,1.000000,109.485203
 1.074,0.255578,1.000000,109.488823
 1.076,0.255643,1.000000,109.492179
 1.078,0.255708,1.000000,109.495270
 1.080,0.255774,1.000000,109.498098
 1.082,0.255839,1.000000,109.500662
 1.084,0.255904,1.000000,109.502963
 1.086,0.255969,1.000000,109.505000
 1.088,0.256035,1.000000,109.506775
 1.090,0.256100,1.000000,109.508287
 1.092,0.256165,1.000000,109.509538
 1.094,0.256230,1.000000,109.510526
 1.096,0.256296,1.000000,109.511253
 1.098,0.256361,1.000000,109.511719
 1.100,0.256426,1.000000,109.511924
 1.102,0.256491,1.000000,109.511868
 1.104,0.256557,1.000000,109.511552
 1.106,0.256622,1.000000,109.510977
 1.108,0.256687,1.000000,109.510141
 1.110,0.256752,1.000000,109.509046
 1.112,0.256817,1.000000,109.507692
 1.114,0.256882,1.000000,109.506080
 1.116,0.256948,1.000000,109.504209
 1.118,0.257013,1.000000,109.502080
 1.120,0.257078,1.000000,109.499694
